Feb. 6, 2025   17:41:39
Differential Pulse Voltammetry
File: iaa_15.625um_mnge_gce_2_250206.bin
Data Source:  Experiment
Instrument Model:  CHI1040C
Header: 
Note: 

Init E (V) = 0.2
Final E (V) = 1
Incr E (V) = 0.002
Amplitude (V) = 0.025
Pulse Width (sec) = 0.05
Sample Width (sec) = 0.0167
Pulse Period (sec) = 0.5
Quiet Time (sec) = 2
Sensitivity (A/V) = 1e-6

Results:

Channel 1:
Ep = 0.704V
ip = -1.328e-6A
Ap = -2.077e-7VA

Potential/V, Current/A

0.202, -6.862e-7
0.204, -6.799e-7
0.206, -6.774e-7
0.208, -6.759e-7
0.210, -6.741e-7
0.212, -6.726e-7
0.214, -6.713e-7
0.216, -6.709e-7
0.218, -6.706e-7
0.220, -6.693e-7
0.222, -6.688e-7
0.224, -6.685e-7
0.226, -6.682e-7
0.228, -6.671e-7
0.230, -6.668e-7
0.232, -6.666e-7
0.234, -6.659e-7
0.236, -6.651e-7
0.238, -6.649e-7
0.240, -6.647e-7
0.242, -6.643e-7
0.244, -6.635e-7
0.246, -6.629e-7
0.248, -6.626e-7
0.250, -6.625e-7
0.252, -6.618e-7
0.254, -6.613e-7
0.256, -6.611e-7
0.258, -6.605e-7
0.260, -6.597e-7
0.262, -6.593e-7
0.264, -6.590e-7
0.266, -6.588e-7
0.268, -6.578e-7
0.270, -6.571e-7
0.272, -6.572e-7
0.274, -6.569e-7
0.276, -6.560e-7
0.278, -6.554e-7
0.280, -6.553e-7
0.282, -6.549e-7
0.284, -6.544e-7
0.286, -6.538e-7
0.288, -6.536e-7
0.290, -6.531e-7
0.292, -6.524e-7
0.294, -6.519e-7
0.296, -6.518e-7
0.298, -6.515e-7
0.300, -6.506e-7
0.302, -6.503e-7
0.304, -6.503e-7
0.306, -6.497e-7
0.308, -6.490e-7
0.310, -6.485e-7
0.312, -6.485e-7
0.314, -6.483e-7
0.316, -6.473e-7
0.318, -6.475e-7
0.320, -6.474e-7
0.322, -6.468e-7
0.324, -6.463e-7
0.326, -6.458e-7
0.328, -6.460e-7
0.330, -6.459e-7
0.332, -6.455e-7
0.334, -6.451e-7
0.336, -6.450e-7
0.338, -6.452e-7
0.340, -6.445e-7
0.342, -6.443e-7
0.344, -6.444e-7
0.346, -6.446e-7
0.348, -6.438e-7
0.350, -6.437e-7
0.352, -6.439e-7
0.354, -6.437e-7
0.356, -6.433e-7
0.358, -6.431e-7
0.360, -6.434e-7
0.362, -6.433e-7
0.364, -6.428e-7
0.366, -6.426e-7
0.368, -6.432e-7
0.370, -6.429e-7
0.372, -6.430e-7
0.374, -6.426e-7
0.376, -6.430e-7
0.378, -6.430e-7
0.380, -6.427e-7
0.382, -6.425e-7
0.384, -6.428e-7
0.386, -6.436e-7
0.388, -6.430e-7
0.390, -6.430e-7
0.392, -6.432e-7
0.394, -6.435e-7
0.396, -6.431e-7
0.398, -6.435e-7
0.400, -6.440e-7
0.402, -6.442e-7
0.404, -6.444e-7
0.406, -6.444e-7
0.408, -6.448e-7
0.410, -6.450e-7
0.412, -6.452e-7
0.414, -6.455e-7
0.416, -6.461e-7
0.418, -6.466e-7
0.420, -6.463e-7
0.422, -6.472e-7
0.424, -6.478e-7
0.426, -6.481e-7
0.428, -6.485e-7
0.430, -6.493e-7
0.432, -6.497e-7
0.434, -6.507e-7
0.436, -6.510e-7
0.438, -6.520e-7
0.440, -6.528e-7
0.442, -6.539e-7
0.444, -6.543e-7
0.446, -6.549e-7
0.448, -6.567e-7
0.450, -6.577e-7
0.452, -6.584e-7
0.454, -6.596e-7
0.456, -6.612e-7
0.458, -6.624e-7
0.460, -6.631e-7
0.462, -6.647e-7
0.464, -6.665e-7
0.466, -6.683e-7
0.468, -6.697e-7
0.470, -6.716e-7
0.472, -6.732e-7
0.474, -6.756e-7
0.476, -6.768e-7
0.478, -6.791e-7
0.480, -6.813e-7
0.482, -6.837e-7
0.484, -6.857e-7
0.486, -6.881e-7
0.488, -6.914e-7
0.490, -6.943e-7
0.492, -6.963e-7
0.494, -6.993e-7
0.496, -7.028e-7
0.498, -7.060e-7
0.500, -7.089e-7
0.502, -7.124e-7
0.504, -7.165e-7
0.506, -7.205e-7
0.508, -7.242e-7
0.510, -7.288e-7
0.512, -7.331e-7
0.514, -7.377e-7
0.516, -7.425e-7
0.518, -7.475e-7
0.520, -7.537e-7
0.522, -7.595e-7
0.524, -7.651e-7
0.526, -7.711e-7
0.528, -7.780e-7
0.530, -7.852e-7
0.532, -7.918e-7
0.534, -7.998e-7
0.536, -8.080e-7
0.538, -8.164e-7
0.540, -8.246e-7
0.542, -8.336e-7
0.544, -8.433e-7
0.546, -8.533e-7
0.548, -8.630e-7
0.550, -8.731e-7
0.552, -8.843e-7
0.554, -8.955e-7
0.556, -9.064e-7
0.558, -9.180e-7
0.560, -9.305e-7
0.562, -9.428e-7
0.564, -9.550e-7
0.566, -9.681e-7
0.568, -9.815e-7
0.570, -9.949e-7
0.572, -1.008e-6
0.574, -1.022e-6
0.576, -1.036e-6
0.578, -1.050e-6
0.580, -1.064e-6
0.582, -1.078e-6
0.584, -1.093e-6
0.586, -1.108e-6
0.588, -1.122e-6
0.590, -1.138e-6
0.592, -1.153e-6
0.594, -1.168e-6
0.596, -1.183e-6
0.598, -1.199e-6
0.600, -1.215e-6
0.602, -1.231e-6
0.604, -1.247e-6
0.606, -1.263e-6
0.608, -1.281e-6
0.610, -1.298e-6
0.612, -1.315e-6
0.614, -1.333e-6
0.616, -1.352e-6
0.618, -1.371e-6
0.620, -1.389e-6
0.622, -1.409e-6
0.624, -1.430e-6
0.626, -1.451e-6
0.628, -1.471e-6
0.630, -1.493e-6
0.632, -1.515e-6
0.634, -1.538e-6
0.636, -1.560e-6
0.638, -1.584e-6
0.640, -1.608e-6
0.642, -1.632e-6
0.644, -1.656e-6
0.646, -1.680e-6
0.648, -1.705e-6
0.650, -1.730e-6
0.652, -1.754e-6
0.654, -1.779e-6
0.656, -1.804e-6
0.658, -1.828e-6
0.660, -1.851e-6
0.662, -1.875e-6
0.664, -1.898e-6
0.666, -1.922e-6
0.668, -1.942e-6
0.670, -1.963e-6
0.672, -1.984e-6
0.674, -2.005e-6
0.676, -2.022e-6
0.678, -2.039e-6
0.680, -2.056e-6
0.682, -2.072e-6
0.684, -2.085e-6
0.686, -2.098e-6
0.688, -2.111e-6
0.690, -2.122e-6
0.692, -2.131e-6
0.694, -2.139e-6
0.696, -2.146e-6
0.698, -2.152e-6
0.700, -2.155e-6
0.702, -2.158e-6
0.704, -2.161e-6
0.706, -2.160e-6
0.708, -2.158e-6
0.710, -2.155e-6
0.712, -2.152e-6
0.714, -2.147e-6
0.716, -2.139e-6
0.718, -2.130e-6
0.720, -2.121e-6
0.722, -2.110e-6
0.724, -2.096e-6
0.726, -2.082e-6
0.728, -2.068e-6
0.730, -2.052e-6
0.732, -2.032e-6
0.734, -2.013e-6
0.736, -1.994e-6
0.738, -1.973e-6
0.740, -1.948e-6
0.742, -1.925e-6
0.744, -1.901e-6
0.746, -1.876e-6
0.748, -1.848e-6
0.750, -1.821e-6
0.752, -1.795e-6
0.754, -1.767e-6
0.756, -1.737e-6
0.758, -1.708e-6
0.760, -1.680e-6
0.762, -1.651e-6
0.764, -1.621e-6
0.766, -1.593e-6
0.768, -1.564e-6
0.770, -1.536e-6
0.772, -1.507e-6
0.774, -1.479e-6
0.776, -1.453e-6
0.778, -1.426e-6
0.780, -1.400e-6
0.782, -1.374e-6
0.784, -1.350e-6
0.786, -1.327e-6
0.788, -1.303e-6
0.790, -1.281e-6
0.792, -1.260e-6
0.794, -1.240e-6
0.796, -1.221e-6
0.798, -1.202e-6
0.800, -1.185e-6
0.802, -1.168e-6
0.804, -1.152e-6
0.806, -1.136e-6
0.808, -1.123e-6
0.810, -1.109e-6
0.812, -1.096e-6
0.814, -1.084e-6
0.816, -1.073e-6
0.818, -1.063e-6
0.820, -1.052e-6
0.822, -1.043e-6
0.824, -1.034e-6
0.826, -1.026e-6
0.828, -1.019e-6
0.830, -1.012e-6
0.832, -1.006e-6
0.834, -1.000e-6
0.836, -9.939e-7
0.838, -9.892e-7
0.840, -9.848e-7
0.842, -9.811e-7
0.844, -9.768e-7
0.846, -9.730e-7
0.848, -9.702e-7
0.850, -9.677e-7
0.852, -9.644e-7
0.854, -9.624e-7
0.856, -9.607e-7
0.858, -9.594e-7
0.860, -9.569e-7
0.862, -9.556e-7
0.864, -9.550e-7
0.866, -9.541e-7
0.868, -9.530e-7
0.870, -9.526e-7
0.872, -9.522e-7
0.874, -9.524e-7
0.876, -9.516e-7
0.878, -9.517e-7
0.880, -9.521e-7
0.882, -9.524e-7
0.884, -9.524e-7
0.886, -9.531e-7
0.888, -9.540e-7
0.890, -9.546e-7
0.892, -9.551e-7
0.894, -9.559e-7
0.896, -9.573e-7
0.898, -9.588e-7
0.900, -9.595e-7
0.902, -9.612e-7
0.904, -9.622e-7
0.906, -9.638e-7
0.908, -9.647e-7
0.910, -9.664e-7
0.912, -9.682e-7
0.914, -9.699e-7
0.916, -9.714e-7
0.918, -9.731e-7
0.920, -9.749e-7
0.922, -9.769e-7
0.924, -9.782e-7
0.926, -9.804e-7
0.928, -9.830e-7
0.930, -9.853e-7
0.932, -9.866e-7
0.934, -9.891e-7
0.936, -9.916e-7
0.938, -9.944e-7
0.940, -9.963e-7
0.942, -9.993e-7
0.944, -1.002e-6
0.946, -1.005e-6
0.948, -1.007e-6
0.950, -1.010e-6
0.952, -1.013e-6
0.954, -1.016e-6
0.956, -1.019e-6
0.958, -1.021e-6
0.960, -1.025e-6
0.962, -1.028e-6
0.964, -1.031e-6
0.966, -1.035e-6
0.968, -1.038e-6
0.970, -1.042e-6
0.972, -1.046e-6
0.974, -1.049e-6
0.976, -1.054e-6
0.978, -1.057e-6
0.980, -1.061e-6
0.982, -1.065e-6
0.984, -1.069e-6
0.986, -1.074e-6
0.988, -1.077e-6
0.990, -1.082e-6
0.992, -1.086e-6
0.994, -1.091e-6
0.996, -1.095e-6
0.998, -1.100e-6
1.000, -1.105e-6
