Feb. 6, 2025   17:48:35
Differential Pulse Voltammetry
File: iaa_31.25um_mnge_gce_2_250206.bin
Data Source:  Experiment
Instrument Model:  CHI1040C
Header: 
Note: 

Init E (V) = 0.2
Final E (V) = 1
Incr E (V) = 0.002
Amplitude (V) = 0.025
Pulse Width (sec) = 0.05
Sample Width (sec) = 0.0167
Pulse Period (sec) = 0.5
Quiet Time (sec) = 2
Sensitivity (A/V) = 1e-6

Results:

Channel 1:
Ep = 0.714V
ip = -1.247e-6A
Ap = -2.093e-7VA

Potential/V, Current/A

0.202, -7.070e-7
0.204, -7.018e-7
0.206, -6.999e-7
0.208, -6.986e-7
0.210, -6.975e-7
0.212, -6.966e-7
0.214, -6.957e-7
0.216, -6.954e-7
0.218, -6.951e-7
0.220, -6.938e-7
0.222, -6.935e-7
0.224, -6.935e-7
0.226, -6.931e-7
0.228, -6.922e-7
0.230, -6.921e-7
0.232, -6.917e-7
0.234, -6.915e-7
0.236, -6.906e-7
0.238, -6.901e-7
0.240, -6.899e-7
0.242, -6.897e-7
0.244, -6.889e-7
0.246, -6.889e-7
0.248, -6.882e-7
0.250, -6.879e-7
0.252, -6.872e-7
0.254, -6.864e-7
0.256, -6.861e-7
0.258, -6.858e-7
0.260, -6.848e-7
0.262, -6.842e-7
0.264, -6.839e-7
0.266, -6.833e-7
0.268, -6.826e-7
0.270, -6.817e-7
0.272, -6.816e-7
0.274, -6.811e-7
0.276, -6.801e-7
0.278, -6.797e-7
0.280, -6.792e-7
0.282, -6.789e-7
0.284, -6.784e-7
0.286, -6.777e-7
0.288, -6.772e-7
0.290, -6.769e-7
0.292, -6.763e-7
0.294, -6.755e-7
0.296, -6.752e-7
0.298, -6.749e-7
0.300, -6.740e-7
0.302, -6.736e-7
0.304, -6.734e-7
0.306, -6.729e-7
0.308, -6.716e-7
0.310, -6.713e-7
0.312, -6.714e-7
0.314, -6.711e-7
0.316, -6.701e-7
0.318, -6.698e-7
0.320, -6.699e-7
0.322, -6.695e-7
0.324, -6.689e-7
0.326, -6.686e-7
0.328, -6.682e-7
0.330, -6.683e-7
0.332, -6.674e-7
0.334, -6.668e-7
0.336, -6.669e-7
0.338, -6.666e-7
0.340, -6.658e-7
0.342, -6.657e-7
0.344, -6.654e-7
0.346, -6.657e-7
0.348, -6.650e-7
0.350, -6.647e-7
0.352, -6.647e-7
0.354, -6.645e-7
0.356, -6.639e-7
0.358, -6.637e-7
0.360, -6.637e-7
0.362, -6.637e-7
0.364, -6.632e-7
0.366, -6.631e-7
0.368, -6.629e-7
0.370, -6.630e-7
0.372, -6.625e-7
0.374, -6.626e-7
0.376, -6.626e-7
0.378, -6.624e-7
0.380, -6.622e-7
0.382, -6.620e-7
0.384, -6.623e-7
0.386, -6.627e-7
0.388, -6.622e-7
0.390, -6.624e-7
0.392, -6.624e-7
0.394, -6.625e-7
0.396, -6.624e-7
0.398, -6.626e-7
0.400, -6.631e-7
0.402, -6.629e-7
0.404, -6.629e-7
0.406, -6.630e-7
0.408, -6.636e-7
0.410, -6.635e-7
0.412, -6.634e-7
0.414, -6.636e-7
0.416, -6.643e-7
0.418, -6.648e-7
0.420, -6.650e-7
0.422, -6.655e-7
0.424, -6.662e-7
0.426, -6.664e-7
0.428, -6.665e-7
0.430, -6.676e-7
0.432, -6.680e-7
0.434, -6.690e-7
0.436, -6.692e-7
0.438, -6.699e-7
0.440, -6.710e-7
0.442, -6.717e-7
0.444, -6.724e-7
0.446, -6.733e-7
0.448, -6.746e-7
0.450, -6.757e-7
0.452, -6.765e-7
0.454, -6.779e-7
0.456, -6.791e-7
0.458, -6.807e-7
0.460, -6.818e-7
0.462, -6.831e-7
0.464, -6.849e-7
0.466, -6.865e-7
0.468, -6.881e-7
0.470, -6.902e-7
0.472, -6.922e-7
0.474, -6.943e-7
0.476, -6.961e-7
0.478, -6.984e-7
0.480, -7.009e-7
0.482, -7.035e-7
0.484, -7.056e-7
0.486, -7.085e-7
0.488, -7.121e-7
0.490, -7.150e-7
0.492, -7.175e-7
0.494, -7.214e-7
0.496, -7.249e-7
0.498, -7.287e-7
0.500, -7.323e-7
0.502, -7.365e-7
0.504, -7.410e-7
0.506, -7.453e-7
0.508, -7.497e-7
0.510, -7.554e-7
0.512, -7.607e-7
0.514, -7.664e-7
0.516, -7.717e-7
0.518, -7.775e-7
0.520, -7.845e-7
0.522, -7.916e-7
0.524, -7.984e-7
0.526, -8.055e-7
0.528, -8.137e-7
0.530, -8.225e-7
0.532, -8.299e-7
0.534, -8.392e-7
0.536, -8.486e-7
0.538, -8.581e-7
0.540, -8.677e-7
0.542, -8.785e-7
0.544, -8.889e-7
0.546, -9.006e-7
0.548, -9.113e-7
0.550, -9.228e-7
0.552, -9.348e-7
0.554, -9.472e-7
0.556, -9.590e-7
0.558, -9.715e-7
0.560, -9.844e-7
0.562, -9.976e-7
0.564, -1.010e-6
0.566, -1.023e-6
0.568, -1.037e-6
0.570, -1.050e-6
0.572, -1.063e-6
0.574, -1.076e-6
0.576, -1.090e-6
0.578, -1.103e-6
0.580, -1.116e-6
0.582, -1.128e-6
0.584, -1.142e-6
0.586, -1.155e-6
0.588, -1.167e-6
0.590, -1.180e-6
0.592, -1.194e-6
0.594, -1.207e-6
0.596, -1.218e-6
0.598, -1.231e-6
0.600, -1.245e-6
0.602, -1.258e-6
0.604, -1.271e-6
0.606, -1.284e-6
0.608, -1.298e-6
0.610, -1.312e-6
0.612, -1.326e-6
0.614, -1.341e-6
0.616, -1.356e-6
0.618, -1.372e-6
0.620, -1.387e-6
0.622, -1.403e-6
0.624, -1.421e-6
0.626, -1.438e-6
0.628, -1.455e-6
0.630, -1.473e-6
0.632, -1.492e-6
0.634, -1.512e-6
0.636, -1.531e-6
0.638, -1.551e-6
0.640, -1.572e-6
0.642, -1.593e-6
0.644, -1.613e-6
0.646, -1.634e-6
0.648, -1.656e-6
0.650, -1.678e-6
0.652, -1.699e-6
0.654, -1.721e-6
0.656, -1.743e-6
0.658, -1.765e-6
0.660, -1.785e-6
0.662, -1.806e-6
0.664, -1.827e-6
0.666, -1.848e-6
0.668, -1.867e-6
0.670, -1.886e-6
0.672, -1.906e-6
0.674, -1.925e-6
0.676, -1.941e-6
0.678, -1.958e-6
0.680, -1.975e-6
0.682, -1.991e-6
0.684, -2.004e-6
0.686, -2.018e-6
0.688, -2.032e-6
0.690, -2.044e-6
0.692, -2.055e-6
0.694, -2.066e-6
0.696, -2.076e-6
0.698, -2.084e-6
0.700, -2.091e-6
0.702, -2.097e-6
0.704, -2.104e-6
0.706, -2.109e-6
0.708, -2.110e-6
0.710, -2.114e-6
0.712, -2.116e-6
0.714, -2.116e-6
0.716, -2.114e-6
0.718, -2.111e-6
0.720, -2.109e-6
0.722, -2.105e-6
0.724, -2.098e-6
0.726, -2.091e-6
0.728, -2.084e-6
0.730, -2.075e-6
0.732, -2.062e-6
0.734, -2.051e-6
0.736, -2.038e-6
0.738, -2.024e-6
0.740, -2.007e-6
0.742, -1.990e-6
0.744, -1.973e-6
0.746, -1.954e-6
0.748, -1.933e-6
0.750, -1.912e-6
0.752, -1.890e-6
0.754, -1.868e-6
0.756, -1.843e-6
0.758, -1.819e-6
0.760, -1.795e-6
0.762, -1.770e-6
0.764, -1.743e-6
0.766, -1.717e-6
0.768, -1.691e-6
0.770, -1.665e-6
0.772, -1.637e-6
0.774, -1.611e-6
0.776, -1.585e-6
0.778, -1.558e-6
0.780, -1.532e-6
0.782, -1.506e-6
0.784, -1.481e-6
0.786, -1.456e-6
0.788, -1.432e-6
0.790, -1.408e-6
0.792, -1.385e-6
0.794, -1.363e-6
0.796, -1.341e-6
0.798, -1.321e-6
0.800, -1.301e-6
0.802, -1.282e-6
0.804, -1.262e-6
0.806, -1.244e-6
0.808, -1.228e-6
0.810, -1.212e-6
0.812, -1.196e-6
0.814, -1.181e-6
0.816, -1.168e-6
0.818, -1.155e-6
0.820, -1.141e-6
0.822, -1.129e-6
0.824, -1.119e-6
0.826, -1.108e-6
0.828, -1.098e-6
0.830, -1.089e-6
0.832, -1.081e-6
0.834, -1.073e-6
0.836, -1.065e-6
0.838, -1.059e-6
0.840, -1.053e-6
0.842, -1.047e-6
0.844, -1.041e-6
0.846, -1.036e-6
0.848, -1.031e-6
0.850, -1.027e-6
0.852, -1.023e-6
0.854, -1.019e-6
0.856, -1.016e-6
0.858, -1.014e-6
0.860, -1.010e-6
0.862, -1.008e-6
0.864, -1.006e-6
0.866, -1.004e-6
0.868, -1.002e-6
0.870, -1.001e-6
0.872, -9.997e-7
0.874, -9.990e-7
0.876, -9.973e-7
0.878, -9.964e-7
0.880, -9.966e-7
0.882, -9.965e-7
0.884, -9.953e-7
0.886, -9.953e-7
0.888, -9.955e-7
0.890, -9.954e-7
0.892, -9.955e-7
0.894, -9.957e-7
0.896, -9.965e-7
0.898, -9.977e-7
0.900, -9.979e-7
0.902, -9.985e-7
0.904, -9.997e-7
0.906, -1.001e-6
0.908, -1.001e-6
0.910, -1.002e-6
0.912, -1.004e-6
0.914, -1.005e-6
0.916, -1.006e-6
0.918, -1.007e-6
0.920, -1.009e-6
0.922, -1.010e-6
0.924, -1.011e-6
0.926, -1.013e-6
0.928, -1.015e-6
0.930, -1.017e-6
0.932, -1.018e-6
0.934, -1.020e-6
0.936, -1.022e-6
0.938, -1.024e-6
0.940, -1.026e-6
0.942, -1.028e-6
0.944, -1.031e-6
0.946, -1.033e-6
0.948, -1.035e-6
0.950, -1.037e-6
0.952, -1.040e-6
0.954, -1.043e-6
0.956, -1.045e-6
0.958, -1.047e-6
0.960, -1.051e-6
0.962, -1.054e-6
0.964, -1.056e-6
0.966, -1.059e-6
0.968, -1.062e-6
0.970, -1.065e-6
0.972, -1.068e-6
0.974, -1.071e-6
0.976, -1.075e-6
0.978, -1.079e-6
0.980, -1.081e-6
0.982, -1.085e-6
0.984, -1.089e-6
0.986, -1.093e-6
0.988, -1.095e-6
0.990, -1.099e-6
0.992, -1.103e-6
0.994, -1.107e-6
0.996, -1.111e-6
0.998, -1.115e-6
1.000, -1.119e-6
