Feb. 6, 2025   17:55:12
Differential Pulse Voltammetry
File: iaa_62.5um_mnge_gce_2_250206.bin
Data Source:  Experiment
Instrument Model:  CHI1040C
Header: 
Note: 

Init E (V) = 0.2
Final E (V) = 1
Incr E (V) = 0.002
Amplitude (V) = 0.025
Pulse Width (sec) = 0.05
Sample Width (sec) = 0.0167
Pulse Period (sec) = 0.5
Quiet Time (sec) = 2
Sensitivity (A/V) = 1e-6

Results:

Channel 1:
Ep = 0.730V
ip = -1.148e-6A
Ap = -2.002e-7VA

Potential/V, Current/A

0.202, -6.733e-7
0.204, -6.715e-7
0.206, -6.721e-7
0.208, -6.728e-7
0.210, -6.733e-7
0.212, -6.736e-7
0.214, -6.742e-7
0.216, -6.751e-7
0.218, -6.762e-7
0.220, -6.760e-7
0.222, -6.764e-7
0.224, -6.773e-7
0.226, -6.776e-7
0.228, -6.775e-7
0.230, -6.778e-7
0.232, -6.782e-7
0.234, -6.786e-7
0.236, -6.781e-7
0.238, -6.785e-7
0.240, -6.788e-7
0.242, -6.786e-7
0.244, -6.788e-7
0.246, -6.789e-7
0.248, -6.788e-7
0.250, -6.784e-7
0.252, -6.784e-7
0.254, -6.777e-7
0.256, -6.779e-7
0.258, -6.781e-7
0.260, -6.774e-7
0.262, -6.768e-7
0.264, -6.771e-7
0.266, -6.766e-7
0.268, -6.759e-7
0.270, -6.758e-7
0.272, -6.758e-7
0.274, -6.754e-7
0.276, -6.748e-7
0.278, -6.747e-7
0.280, -6.744e-7
0.282, -6.741e-7
0.284, -6.735e-7
0.286, -6.732e-7
0.288, -6.731e-7
0.290, -6.727e-7
0.292, -6.720e-7
0.294, -6.719e-7
0.296, -6.717e-7
0.298, -6.713e-7
0.300, -6.705e-7
0.302, -6.704e-7
0.304, -6.703e-7
0.306, -6.696e-7
0.308, -6.691e-7
0.310, -6.689e-7
0.312, -6.683e-7
0.314, -6.683e-7
0.316, -6.677e-7
0.318, -6.675e-7
0.320, -6.673e-7
0.322, -6.671e-7
0.324, -6.666e-7
0.326, -6.660e-7
0.328, -6.664e-7
0.330, -6.661e-7
0.332, -6.654e-7
0.334, -6.648e-7
0.336, -6.652e-7
0.338, -6.646e-7
0.340, -6.642e-7
0.342, -6.640e-7
0.344, -6.641e-7
0.346, -6.639e-7
0.348, -6.632e-7
0.350, -6.628e-7
0.352, -6.631e-7
0.354, -6.630e-7
0.356, -6.625e-7
0.358, -6.621e-7
0.360, -6.624e-7
0.362, -6.625e-7
0.364, -6.619e-7
0.366, -6.611e-7
0.368, -6.616e-7
0.370, -6.617e-7
0.372, -6.612e-7
0.374, -6.610e-7
0.376, -6.611e-7
0.378, -6.610e-7
0.380, -6.608e-7
0.382, -6.607e-7
0.384, -6.606e-7
0.386, -6.610e-7
0.388, -6.606e-7
0.390, -6.604e-7
0.392, -6.608e-7
0.394, -6.611e-7
0.396, -6.606e-7
0.398, -6.609e-7
0.400, -6.611e-7
0.402, -6.611e-7
0.404, -6.608e-7
0.406, -6.609e-7
0.408, -6.613e-7
0.410, -6.614e-7
0.412, -6.613e-7
0.414, -6.615e-7
0.416, -6.618e-7
0.418, -6.623e-7
0.420, -6.623e-7
0.422, -6.625e-7
0.424, -6.630e-7
0.426, -6.634e-7
0.428, -6.635e-7
0.430, -6.643e-7
0.432, -6.648e-7
0.434, -6.656e-7
0.436, -6.657e-7
0.438, -6.667e-7
0.440, -6.673e-7
0.442, -6.679e-7
0.444, -6.684e-7
0.446, -6.692e-7
0.448, -6.705e-7
0.450, -6.713e-7
0.452, -6.718e-7
0.454, -6.727e-7
0.456, -6.744e-7
0.458, -6.756e-7
0.460, -6.762e-7
0.462, -6.778e-7
0.464, -6.793e-7
0.466, -6.811e-7
0.468, -6.820e-7
0.470, -6.838e-7
0.472, -6.856e-7
0.474, -6.880e-7
0.476, -6.891e-7
0.478, -6.910e-7
0.480, -6.934e-7
0.482, -6.957e-7
0.484, -6.979e-7
0.486, -7.005e-7
0.488, -7.038e-7
0.490, -7.064e-7
0.492, -7.093e-7
0.494, -7.122e-7
0.496, -7.159e-7
0.498, -7.196e-7
0.500, -7.226e-7
0.502, -7.267e-7
0.504, -7.310e-7
0.506, -7.355e-7
0.508, -7.400e-7
0.510, -7.450e-7
0.512, -7.500e-7
0.514, -7.555e-7
0.516, -7.611e-7
0.518, -7.673e-7
0.520, -7.742e-7
0.522, -7.809e-7
0.524, -7.877e-7
0.526, -7.952e-7
0.528, -8.033e-7
0.530, -8.114e-7
0.532, -8.199e-7
0.534, -8.288e-7
0.536, -8.387e-7
0.538, -8.490e-7
0.540, -8.587e-7
0.542, -8.693e-7
0.544, -8.809e-7
0.546, -8.926e-7
0.548, -9.041e-7
0.550, -9.161e-7
0.552, -9.286e-7
0.554, -9.416e-7
0.556, -9.543e-7
0.558, -9.674e-7
0.560, -9.816e-7
0.562, -9.954e-7
0.564, -1.009e-6
0.566, -1.023e-6
0.568, -1.037e-6
0.570, -1.052e-6
0.572, -1.065e-6
0.574, -1.079e-6
0.576, -1.093e-6
0.578, -1.107e-6
0.580, -1.120e-6
0.582, -1.133e-6
0.584, -1.147e-6
0.586, -1.159e-6
0.588, -1.171e-6
0.590, -1.183e-6
0.592, -1.195e-6
0.594, -1.206e-6
0.596, -1.216e-6
0.598, -1.227e-6
0.600, -1.237e-6
0.602, -1.247e-6
0.604, -1.256e-6
0.606, -1.265e-6
0.608, -1.275e-6
0.610, -1.284e-6
0.612, -1.293e-6
0.614, -1.301e-6
0.616, -1.311e-6
0.618, -1.320e-6
0.620, -1.329e-6
0.622, -1.338e-6
0.624, -1.349e-6
0.626, -1.359e-6
0.628, -1.369e-6
0.630, -1.380e-6
0.632, -1.392e-6
0.634, -1.404e-6
0.636, -1.415e-6
0.638, -1.429e-6
0.640, -1.442e-6
0.642, -1.457e-6
0.644, -1.470e-6
0.646, -1.485e-6
0.648, -1.502e-6
0.650, -1.518e-6
0.652, -1.534e-6
0.654, -1.551e-6
0.656, -1.569e-6
0.658, -1.587e-6
0.660, -1.604e-6
0.662, -1.623e-6
0.664, -1.642e-6
0.666, -1.662e-6
0.668, -1.680e-6
0.670, -1.699e-6
0.672, -1.718e-6
0.674, -1.738e-6
0.676, -1.756e-6
0.678, -1.775e-6
0.680, -1.794e-6
0.682, -1.814e-6
0.684, -1.830e-6
0.686, -1.848e-6
0.688, -1.866e-6
0.690, -1.884e-6
0.692, -1.900e-6
0.694, -1.916e-6
0.696, -1.933e-6
0.698, -1.948e-6
0.700, -1.961e-6
0.702, -1.974e-6
0.704, -1.988e-6
0.706, -2.000e-6
0.708, -2.010e-6
0.710, -2.021e-6
0.712, -2.031e-6
0.714, -2.041e-6
0.716, -2.047e-6
0.718, -2.053e-6
0.720, -2.060e-6
0.722, -2.065e-6
0.724, -2.068e-6
0.726, -2.070e-6
0.728, -2.073e-6
0.730, -2.074e-6
0.732, -2.071e-6
0.734, -2.069e-6
0.736, -2.066e-6
0.738, -2.063e-6
0.740, -2.055e-6
0.742, -2.049e-6
0.744, -2.041e-6
0.746, -2.032e-6
0.748, -2.019e-6
0.750, -2.008e-6
0.752, -1.995e-6
0.754, -1.981e-6
0.756, -1.965e-6
0.758, -1.948e-6
0.760, -1.931e-6
0.762, -1.913e-6
0.764, -1.893e-6
0.766, -1.873e-6
0.768, -1.853e-6
0.770, -1.832e-6
0.772, -1.809e-6
0.774, -1.787e-6
0.776, -1.764e-6
0.778, -1.742e-6
0.780, -1.717e-6
0.782, -1.694e-6
0.784, -1.671e-6
0.786, -1.647e-6
0.788, -1.622e-6
0.790, -1.599e-6
0.792, -1.576e-6
0.794, -1.553e-6
0.796, -1.531e-6
0.798, -1.509e-6
0.800, -1.487e-6
0.802, -1.467e-6
0.804, -1.445e-6
0.806, -1.425e-6
0.808, -1.406e-6
0.810, -1.387e-6
0.812, -1.368e-6
0.814, -1.351e-6
0.816, -1.335e-6
0.818, -1.318e-6
0.820, -1.302e-6
0.822, -1.287e-6
0.824, -1.273e-6
0.826, -1.260e-6
0.828, -1.247e-6
0.830, -1.235e-6
0.832, -1.224e-6
0.834, -1.214e-6
0.836, -1.202e-6
0.838, -1.193e-6
0.840, -1.184e-6
0.842, -1.176e-6
0.844, -1.167e-6
0.846, -1.160e-6
0.848, -1.153e-6
0.850, -1.147e-6
0.852, -1.140e-6
0.854, -1.134e-6
0.856, -1.130e-6
0.858, -1.125e-6
0.860, -1.120e-6
0.862, -1.116e-6
0.864, -1.112e-6
0.866, -1.109e-6
0.868, -1.105e-6
0.870, -1.102e-6
0.872, -1.100e-6
0.874, -1.097e-6
0.876, -1.095e-6
0.878, -1.093e-6
0.880, -1.091e-6
0.882, -1.090e-6
0.884, -1.088e-6
0.886, -1.087e-6
0.888, -1.086e-6
0.890, -1.085e-6
0.892, -1.084e-6
0.894, -1.084e-6
0.896, -1.083e-6
0.898, -1.084e-6
0.900, -1.083e-6
0.902, -1.083e-6
0.904, -1.084e-6
0.906, -1.084e-6
0.908, -1.084e-6
0.910, -1.084e-6
0.912, -1.085e-6
0.914, -1.086e-6
0.916, -1.086e-6
0.918, -1.087e-6
0.920, -1.088e-6
0.922, -1.089e-6
0.924, -1.090e-6
0.926, -1.091e-6
0.928, -1.092e-6
0.930, -1.094e-6
0.932, -1.095e-6
0.934, -1.096e-6
0.936, -1.098e-6
0.938, -1.100e-6
0.940, -1.101e-6
0.942, -1.103e-6
0.944, -1.105e-6
0.946, -1.107e-6
0.948, -1.108e-6
0.950, -1.110e-6
0.952, -1.113e-6
0.954, -1.115e-6
0.956, -1.117e-6
0.958, -1.119e-6
0.960, -1.122e-6
0.962, -1.125e-6
0.964, -1.126e-6
0.966, -1.129e-6
0.968, -1.132e-6
0.970, -1.135e-6
0.972, -1.137e-6
0.974, -1.140e-6
0.976, -1.143e-6
0.978, -1.146e-6
0.980, -1.149e-6
0.982, -1.152e-6
0.984, -1.155e-6
0.986, -1.159e-6
0.988, -1.161e-6
0.990, -1.165e-6
0.992, -1.168e-6
0.994, -1.172e-6
0.996, -1.175e-6
0.998, -1.178e-6
1.000, -1.183e-6
